Time (s),Amplitude
0.0,-165
4.166843587674975e-05,-108
8.33368717534995e-05,-56
0.00012500530763024924,11
0.000166673743506999,77
0.00020834217938374875,126
0.0002500106152604985,183
0.00029167905113724823,210
0.000333347487013998,240
0.00037501592289074774,240
0.0004166843587674975,227
0.00045835279464424725,202
0.000500021230520997,152
0.0005416896663977467,113
0.0005833581022744965,65
0.0006250265381512462,-14
0.000666694974027996,-74
0.0007083634099047457,-121
0.0007500318457814955,-171
0.0007917002816582452,-202
0.000833368717534995,-236
0.0008750371534117447,-233
0.0009167055892884945,-222
0.0009583740251652442,-213
0.001000042461041994,-161
0.0010417108969187436,-112
0.0010833793327954934,-49
0.0011250477686722432,24
0.001166716204548993,71
0.0012083846404257427,145
0.0012500530763024924,178
0.0012917215121792422,222
0.001333389948055992,247
0.0013750583839327417,255
0.0014167268198094914,241
0.0014583952556862412,220
0.001500063691562991,185
0.0015417321274397407,132
0.0015834005633164905,74
0.0016250689991932402,-2
0.00166673743506999,-52
0.0017084058709467397,-122
0.0017500743068234895,-168
0.0017917427427002392,-208
0.001833411178576989,-227
0.0018750796144537387,-247
0.0019167480503304885,-229
0.0019584164862072382,-194
0.002000084922083988,-163
0.0020417533579607378,-104
0.0020834217938374873,-44
0.0021250902297142373,20
0.002166758665590987,80
0.0022084271014677368,133
0.0022500955373444863,184
0.0022917639732212363,223
0.002333432409097986,238
0.002375100844974736,240
0.0024167692808514853,229
0.0024584377167282353,197
0.002500106152604985,163
0.002541774588481735,114
0.0025834430243584844,49
0.0026251114602352343,-9
0.002666779896111984,-74
0.0027084483319887334,-126
0.0027501167678654834,-172
0.002791785203742233,-211
0.002833453639618983,-241
0.0028751220754957324,-239
0.0029167905113724824,-233
0.002958458947249232,-208
0.003000127383125982,-158
0.0030417958190027314,-106
0.0030834642548794814,-40
0.003125132690756231,29
0.003166801126632981,87
0.0032084695625097305,145
0.0032501379983864804,185
0.00329180643426323,229
0.00333347487013998,236
0.0033751433060167295,253
0.0034168117418934794,230
0.003458480177770229,218
0.003500148613646979,173
0.0035418170495237285,116
0.0035834854854004785,55
0.003625153921277228,-5
0.003666822357153978,-65
0.0037084907930307275,-118
0.0037501592289074775,-172
0.003791827664784227,-202
0.003833496100660977,-229
0.0038751645365377265,-228
0.0039168329724144765,-227
0.003958501408291226,-202
0.004000169844167976,-158
0.004041838280044725,-100
0.0040835067159214755,-46
0.004125175151798225,17
0.004166843587674975,73
0.004208512023551724,141
0.0042501804594284745,181
0.004291848895305224,223
0.004333517331181974,232
0.004375185767058723,247
0.0044168542029354736,240
0.004458522638812223,206
0.004500191074688973,168
0.004541859510565722,117
0.004583527946442473,58
0.004625196382319222,1
0.004666864818195972,-68
0.004708533254072721,-116
0.004750201689949472,-174
0.004791870125826221,-206
0.004833538561702971,-228
0.00487520699757972,-239
0.004916875433456471,-223
0.00495854386933322,-203
0.00500021230520997,-158
0.005041880741086719,-112
0.00508354917696347,-50
0.005125217612840219,5
0.005166886048716969,75
0.005208554484593718,129
0.005250222920470469,179
0.005291891356347218,212
0.005333559792223968,232
0.005375228228100717,247
0.005416896663977467,239
0.005458565099854217,201
0.005500233535730967,173
0.005541901971607716,116
0.005583570407484466,64
0.005625238843361216,2
0.005666907279237966,-73
0.005708575715114715,-107
0.005750244150991465,-183
0.005791912586868215,-204
0.005833581022744965,-229
0.005875249458621714,-239
0.005916917894498464,-223
0.005958586330375214,-200
0.006000254766251964,-160
0.006041923202128713,-110
0.006083591638005463,-48
0.006125260073882213,9
0.006166928509758963,75
0.006208596945635712,127
0.006250265381512462,165
0.006291933817389212,201
0.006333602253265962,218
0.006375270689142711,229
0.006416939125019461,212
0.006458607560896211,192
0.006500275996772961,149
0.00654194443264971,97
0.00658361286852646,43
0.00662528130440321,-20
0.00666694974027996,-72
0.006708618176156709,-134
0.006750286612033459,-186
0.0067919550479102085,-220
0.006833623483786959,-237
0.006875291919663708,-245
0.006916960355540458,-228
0.0069586287914172075,-217
0.007000297227293958,-168
0.0070419656631707074,-112
0.007083634099047457,-57
0.0071253025349242065,9
0.007166970970800957,75
0.0072086394066777065,138
0.007250307842554456,178
0.0072919762784312055,213
0.007333644714307956,233
0.0073753131501847055,237
0.007416981586061455,222
0.0074586500219382046,199
0.007500318457814955,153
0.0075419868936917045,96
0.007583655329568454,30
0.007625323765445204,-22
0.007666992201321954,-88
0.0077086606371987035,-133
0.007750329073075453,-191
0.007791997508952203,-216
0.007833665944828953,-240
0.007875334380705703,-241
0.007917002816582452,-221
0.007958671252459202,-206
0.008000339688335951,-167
0.0080420081242127,-107
0.00808367656008945,-60
0.008125344995966201,29
0.008167013431842951,74
0.0082086818677197,133
0.00825035030359645,179
0.0082920187394732,209
0.00833368717534995,236
0.008375355611226699,246
0.008417024047103448,233
0.0084586924829802,206
0.008500360918856949,153
0.008542029354733699,112
0.008583697790610448,45
0.008625366226487198,-7
0.008667034662363947,-76
0.008708703098240697,-128
0.008750371534117446,-171
0.008792039969994198,-218
0.008833708405870947,-243
0.008875376841747697,-255
0.008917045277624446,-222
0.008958713713501196,-218
0.009000382149377945,-169
0.009042050585254695,-114
0.009083719021131444,-58
0.009125387457008196,2
0.009167055892884945,61
0.009208724328761695,118
0.009250392764638444,166
0.009292061200515194,201
0.009333729636391943,216
0.009375398072268693,221
0.009417066508145442,214
0.009458734944022192,186
0.009500403379898943,145
0.009542071815775693,105
0.009583740251652442,44
0.009625408687529192,-20
0.009667077123405941,-80
0.009708745559282691,-133
0.00975041399515944,-178
0.00979208243103619,-212
0.009833750866912941,-231
0.00987541930278969,-234
0.00991708773866644,-224
0.00995875617454319,-194
0.01000042461041994,-168
0.010042093046296689,-113
0.010083761482173438,-50
0.010125429918050188,9
0.01016709835392694,61
0.010208766789803689,117
0.010250435225680438,175
0.010292103661557188,201
0.010333772097433937,213
0.010375440533310687,233
0.010417108969187436,220
0.010458777405064186,192
0.010500445840940937,141
0.010542114276817687,100
0.010583782712694436,30
0.010625451148571186,-10
0.010667119584447935,-86
0.010708788020324685,-141
0.010750456456201435,-181
0.010792124892078184,-225
0.010833793327954934,-245
0.010875461763831685,-253
0.010917130199708434,-230
0.010958798635585184,-213
0.011000467071461933,-159
0.011042135507338683,-116
0.011083803943215433,-53
0.011125472379092182,8
0.011167140814968932,58
0.011208809250845683,123
0.011250477686722432,161
0.011292146122599182,197
0.011333814558475932,223
0.011375482994352681,232
0.01141715143022943,214
0.01145881986610618,184
0.01150048830198293,150
0.011542156737859681,94
0.01158382517373643,37
0.01162549360961318,-29
0.01166716204548993,-93
0.011708830481366679,-140
0.011750498917243429,-194
0.011792167353120178,-242
0.011833835788996928,-251
0.011875504224873679,-260
0.011917172660750429,-241
0.011958841096627178,-218
0.012000509532503928,-175
0.012042177968380677,-124
0.012083846404257427,-65
0.012125514840134176,1
0.012167183276010926,68
0.012208851711887675,133
0.012250520147764427,172
0.012292188583641176,217
0.012333857019517926,232
0.012375525455394675,231
0.012417193891271425,217
0.012458862327148174,194
0.012500530763024924,157
0.012542199198901673,98
0.012583867634778425,39
0.012625536070655174,-26
0.012667204506531924,-76
0.012708872942408673,-136
0.012750541378285423,-188
0.012792209814162172,-221
0.012833878250038922,-250
0.012875546685915671,-247
0.012917215121792423,-239
0.012958883557669172,-211
0.013000551993545922,-176
0.013042220429422671,-117
0.01308388886529942,-66
0.01312555730117617,-5
0.01316722573705292,67
0.01320889417292967,109
0.01325056260880642,162
0.01329223104468317,196
0.01333389948055992,217
0.01337556791643667,218
0.013417236352313419,204
0.013458904788190168,187
0.013500573224066918,137
0.013542241659943667,94
0.013583910095820417,34
0.013625578531697168,-31
0.013667246967573918,-76
0.013708915403450667,-137
0.013750583839327417,-181
0.013792252275204166,-219
0.013833920711080916,-235
0.013875589146957665,-242
0.013917257582834415,-233
0.013958926018711166,-210
0.014000594454587916,-175
0.014042262890464665,-117
0.014083931326341415,-62
0.014125599762218164,8
0.014167268198094914,70
0.014208936633971663,129
0.014250605069848413,162
0.014292273505725164,212
0.014333941941601914,229
0.014375610377478663,229
0.014417278813355413,226
0.014458947249232162,202
0.014500615685108912,155
0.014542284120985662,97
0.014583952556862411,51
0.014625620992739162,-23
0.014667289428615912,-75
0.014708957864492661,-141
0.014750626300369411,-183
0.01479229473624616,-219
0.01483396317212291,-237
0.01487563160799966,-242
0.014917300043876409,-234
0.014958968479753159,-203
0.01500063691562991,-168
0.01504230535150666,-110
0.015083973787383409,-57
0.015125642223260159,-2
0.015167310659136908,65
0.015208979095013658,119
0.015250647530890407,155
0.015292315966767157,202
0.015333984402643908,222
0.015375652838520657,236
0.015417321274397407,218
0.015458989710274157,201
0.015500658146150906,151
0.015542326582027656,110
0.015583995017904405,56
0.015625663453781156,-13
0.015667331889657906,-70
0.015709000325534656,-130
0.015750668761411405,-177
0.015792337197288155,-206
0.015834005633164904,-233
0.015875674069041654,-248
0.015917342504918403,-228
0.015959010940795153,-208
0.016000679376671902,-166
0.016042347812548652,-112
0.0160840162484254,-52
0.01612568468430215,10
0.0161673531201789,70
0.016209021556055653,131
0.016250689991932403,172
0.016292358427809153,218
0.016334026863685902,244
0.01637569529956265,233
0.0164173637354394,219
0.01645903217131615,208
0.0165007006071929,159
0.01654236904306965,104
0.0165840374789464,52
0.01662570591482315,-9
0.0166673743506999,-77
0.016709042786576648,-129
0.016750711222453397,-179
0.016792379658330147,-214
0.016834048094206897,-243
0.01687571653008365,-247
0.0169173849659604,-231
0.01695905340183715,-210
0.017000721837713898,-162
0.017042390273590648,-110
0.017084058709467397,-67
0.017125727145344147,5
0.017167395581220896,67
0.017209064017097646,128
0.017250732452974395,168
0.017292400888851145,211
0.017334069324727894,227
0.017375737760604644,216
0.017417406196481394,219
0.017459074632358143,195
0.017500743068234893,145
0.017542411504111642,102
0.017584079939988395,41
0.017625748375865145,-24
0.017667416811741894,-84
0.017709085247618644,-123
0.017750753683495393,-191
0.017792422119372143,-208
0.017834090555248892,-235
0.017875758991125642,-235
0.01791742742700239,-231
0.01795909586287914,-209
0.01800076429875589,-160
0.01804243273463264,-114
0.01808410117050939,-57
0.01812576960638614,11
0.01816743804226289,59
0.018209106478139638,120
0.01825077491401639,172
0.01829244334989314,207
0.01833411178576989,226
0.01837578022164664,224
0.01841744865752339,222
0.01845911709340014,195
0.01850078552927689,150
0.018542453965153638,105
0.018584122401030388,49
0.018625790836907137,-21
0.018667459272783887,-83
0.018709127708660636,-127
0.018750796144537386,-185
0.018792464580414135,-222
0.018834133016290885,-246
0.018875801452167634,-257
0.018917469888044384,-256
0.018959138323921137,-218
0.019000806759797886,-181
0.019042475195674636,-106
0.019084143631551385,-68
0.019125812067428135,9
0.019167480503304885,63
0.019209148939181634,118
0.019250817375058384,168
0.019292485810935133,208
0.019334154246811883,225
0.019375822682688632,228
0.019417491118565382,217
0.01945915955444213,194
0.01950082799031888,149
0.01954249642619563,104
0.01958416486207238,44
0.019625833297949133,-15
0.019667501733825882,-88
0.019709170169702632,-131
0.01975083860557938,-178
0.01979250704145613,-208
0.01983417547733288,-244
0.01987584391320963,-246
0.01991751234908638,-239
0.01995918078496313,-223
0.02000084922083988,-171
0.02004251765671663,-124
0.020084186092593378,-68
0.020125854528470127,-2
0.020167522964346877,62
0.020209191400223626,122
0.020250859836100376,167
0.020292528271977125,213
0.02033419670785388,224
0.020375865143730628,230
0.020417533579607378,221
0.020459202015484127,197
0.020500870451360877,154
0.020542538887237626,103
0.020584207323114376,43
0.020625875758991125,-9
0.020667544194867875,-80
0.020709212630744624,-131
0.020750881066621374,-189
0.020792549502498123,-205
0.020834217938374873,-234
0.020875886374251622,-241
0.020917554810128372,-231
0.02095922324600512,-208
0.021000891681881875,-153
0.021042560117758624,-115
0.021084228553635374,-51
0.021125896989512123,13
0.021167565425388873,72
0.021209233861265622,131
0.021250902297142372,157
0.02129257073301912,195
0.02133423916889587,221
0.02137590760477262,219
0.02141757604064937,222
0.02145924447652612,191
0.02150091291240287,144
0.02154258134827962,101
0.021584249784156368,46
0.021625918220033118,-19
0.021667586655909867,-66
0.02170925509178662,-134
0.02175092352766337,-168
0.02179259196354012,-216
0.02183426039941687,-238
0.02187592883529362,-237
0.021917597271170368,-222
0.021959265707047117,-209
0.022000934142923867,-163
0.022042602578800616,-111
0.022084271014677366,-54
0.022125939450554116,7
0.022167607886430865,67
0.022209276322307615,125
0.022250944758184364,166
0.022292613194061114,205
0.022334281629937863,227
0.022375950065814616,227
0.022417618501691366,236
0.022459286937568115,197
0.022500955373444865,147
0.022542623809321614,105
0.022584292245198364,40
0.022625960681075113,-8
0.022667629116951863,-81
0.022709297552828613,-141
0.022750965988705362,-190
0.02279263442458211,-223
0.02283430286045886,-238
0.02287597129633561,-255
0.02291763973221236,-243
0.02295930816808911,-218
0.02300097660396586,-175
0.02304264503984261,-126
0.023084313475719362,-64
0.02312598191159611,-7
0.02316765034747286,51
0.02320931878334961,114
0.02325098721922636,148
0.02329265565510311,203
0.02333432409097986,208
0.02337599252685661,213
0.023417660962733358,205
0.023459329398610108,178
0.023500997834486857,132
0.023542666270363607,85
0.023584334706240356,22
0.023626003142117106,-38
0.023667671577993855,-93
0.023709340013870605,-139
0.023751008449747358,-194
0.023792676885624107,-228
0.023834345321500857,-247
0.023876013757377607,-255
0.023917682193254356,-244
0.023959350629131106,-220
0.024001019065007855,-174
0.024042687500884605,-119
0.024084355936761354,-72
0.024126024372638104,-4
0.024167692808514853,49
0.024209361244391603,113
0.024251029680268352,159
0.024292698116145102,200
0.02433436655202185,211
0.0243760349878986,223
0.02441770342377535,209
0.024459371859652104,183
0.024501040295528853,138
0.024542708731405603,92
0.024584377167282352,31
0.0246260456031591,-26
0.02466771403903585,-86
0.0247093824749126,-140
0.02475105091078935,-176
0.0247927193466661,-224
0.02483438778254285,-240
0.0248760562184196,-244
0.02491772465429635,-244
0.024959393090173098,-213
0.025001061526049848,-166
0.025042729961926597,-122
0.025084398397803347,-71
0.0251260668336801,-12
0.02516773526955685,59
0.0252094037054336,102
0.025251072141310348,156
0.025292740577187098,185
0.025334409013063847,207
0.025376077448940597,211
0.025417745884817346,207
0.025459414320694096,176
0.025501082756570845,132
0.025542751192447595,88
0.025584419628324345,25
0.025626088064201094,-30
0.025667756500077844,-95
0.025709424935954593,-147
0.025751093371831343,-201
0.025792761807708092,-238
0.025834430243584845,-250
0.025876098679461595,-253
0.025917767115338344,-251
0.025959435551215094,-215
0.026001103987091843,-181
0.026042772422968593,-124
0.026084440858845342,-59
0.026126109294722092,-8
0.02616777773059884,67
0.02620944616647559,111
0.02625111460235234,159
0.02629278303822909,196
0.02633445147410584,208
0.02637611990998259,225
0.02641778834585934,208
0.02645945678173609,189
0.02650112521761284,156
0.02654279365348959,93
0.02658446208936634,44
0.02662613052524309,-19
0.02666779896111984,-77
0.02670946739699659,-137
0.02675113583287334,-178
0.026792804268750088,-216
0.026834472704626838,-235
0.026876141140503587,-244
0.026917809576380337,-238
0.026959478012257086,-207
0.027001146448133836,-171
0.027042814884010585,-115
0.027084483319887335,-51
0.027126151755764084,5
0.027167820191640834,67
0.027209488627517587,126
0.027251157063394336,171
0.027292825499271086,196
0.027334493935147836,227
0.027376162371024585,220
0.027417830806901335,213
0.027459499242778084,194
0.027501167678654834,145
0.027542836114531583,92
0.027584504550408333,36
0.027626172986285082,-21
0.027667841422161832,-79
0.02770950985803858,-133
0.02775117829391533,-185
0.02779284672979208,-212
0.02783451516566883,-242
0.027876183601545583,-246
0.027917852037422333,-233
0.027959520473299082,-213
0.02800118890917583,-174
0.02804285734505258,-128
0.02808452578092933,-70
0.02812619421680608,-3
0.02816786265268283,52
0.02820953108855958,112
0.02825119952443633,157
0.02829286796031308,197
0.028334536396189828,211
0.028376204832066577,223
0.028417873267943327,213
0.028459541703820077,191
0.028501210139696826,154
0.028542878575573576,97
0.02858454701145033,47
0.028626215447327078,-16
0.028667883883203828,-86
0.028709552319080577,-132
0.028751220754957327,-175
0.028792889190834076,-210
0.028834557626710826,-234
0.028876226062587575,-236
0.028917894498464325,-230
0.028959562934341074,-214
0.029001231370217824,-170
0.029042899806094574,-118
0.029084568241971323,-65
0.029126236677848073,3
0.029167905113724822,59
0.02920957354960157,107
0.029251241985478325,162
0.029292910421355074,192
0.029334578857231824,209
0.029376247293108573,225
0.029417915728985323,212
0.029459584164862072,188
0.029501252600738822,148
0.02954292103661557,106
0.02958458947249232,40
0.02962625790836907,-14
0.02966792634424582,-76
0.02970959478012257,-132
0.02975126321599932,-173
0.02979293165187607,-206
0.029834600087752818,-231
0.029876268523629568,-232
0.029917936959506317,-225
0.02995960539538307,-208
0.03000127383125982,-162
0.03004294226713657,-128
0.03008461070301332,-48
0.03012627913889007,3
0.030167947574766818,65
0.030209616010643568,124
0.030251284446520317,163
0.030292952882397067,203
0.030334621318273816,224
0.030376289754150566,224
0.030417958190027315,216
0.030459626625904065,190
0.030501295061780814,144
0.030542963497657564,88
0.030584631933534313,47
0.030626300369411066,-31
0.030667968805287816,-78
0.030709637241164565,-144
0.030751305677041315,-191
0.030792974112918065,-214
0.030834642548794814,-241
0.030876310984671564,-243
0.030917979420548313,-236
0.030959647856425063,-209
0.031001316292301812,-166
0.031042984728178562,-124
0.03108465316405531,-56
0.03112632159993206,6
0.03116799003580881,73
0.03120965847168556,128
0.03125132690756231,176
0.03129299534343906,218
0.03133466377931581,245
0.03137633221519256,242
0.03141800065106931,238
0.03145966908694606,214
0.03150133752282281,157
0.031543005958699556,113
0.03158467439457631,57
0.031626342830453055,-7
0.03166801126632981,-69
0.03170967970220656,-124
0.03175134813808331,-180
0.03179301657396006,-205
0.031834685009836806,-226
0.03187635344571356,-238
0.031918021881590306,-229
0.03195969031746706,-203
