Time (s),Amplitude
0.0,-12455936
6.250406927534345e-05,-7241728
0.0001250081385506869,-675840
0.00018751220782603034,6223872
0.0002500162771013738,12193792
0.00031252034637671724,16531456
0.0003750244156520607,18438144
0.00043752848492740413,17330176
0.0005000325542027476,14067712
0.000562536623478091,8800256
0.0006250406927534345,2213888
0.000687544762028778,-4784128
0.0007500488313041214,-10424320
0.0008125529005794648,-14301184
0.0008750569698548083,-16607232
0.0009375610391301518,-15927296
0.0010000651084054952,-12699648
0.0010625691776808385,-7436288
0.001125073246956182,-1189888
0.0011875773162315255,4839424
0.001250081385506869,10706944
0.0013125854547822123,14479360
0.001375089524057556,16252928
0.0014375935933328993,16267264
0.0015000976626082427,13111296
0.0015626017318835861,8327168
0.0016251058011589295,1945600
0.0016876098704342731,-4573184
0.0017501139397096165,-9951232
0.00181261800898496,-13600768
0.0018751220782603035,-15796224
0.001937626147535647,-15550464
0.0020001302168109903,-12144640
0.0020626342860863337,-6856704
0.002125138355361677,-339968
0.0021876424246370205,5449728
0.002250146493912364,11546624
0.0023126505631877077,15843328
0.002375154632463051,16797696
0.0024376587017383945,16365568
0.002500162771013738,13174784
0.0025626668402890813,7976960
0.0026251709095644247,1683456
0.002687674978839768,-5046272
0.002750179048115112,-10901504
0.0028126831173904553,-15087616
0.0028751871866657987,-17086464
0.002937691255941142,-17123328
0.0030001953252164855,-14006272
0.003062699394491829,-8523776
0.0031252034637671722,-2330624
0.0031877075330425156,4786176
0.003250211602317859,10246144
0.003312715671593203,14163968
0.0033752197408685462,16908288
0.0034377238101438896,16228352
0.003500227879419233,12689408
0.0035627319486945764,8458240
0.00362523601796992,3010560
0.003687740087245263,-3938304
0.003750244156520607,-9179136
0.0038127482257959504,-13586432
0.003875252295071294,-15501312
0.003937756364346637,-15738880
0.004000260433621981,-13479936
0.0040627645028973244,-8337408
0.004125268572172667,-2390016
0.004187772641448011,3846144
0.004250276710723354,9496576
0.004312780779998698,13971456
0.004375284849274041,16025600
0.004437788918549385,15120384
0.004500292987824728,11896832
0.004562797057100072,7055360
0.004625301126375415,1236992
0.004687805195650758,-5273600
0.004750309264926102,-10840064
0.004812813334201445,-14368768
0.004875317403476789,-16218112
0.004937821472752132,-15456256
0.005000325542027476,-12488704
0.00506282961130282,-7356416
0.0051253336805781625,-1529856
0.005187837749853506,4763648
0.005250341819128849,10504192
0.005312845888404193,14053376
0.005375349957679536,16160768
0.00543785402695488,14950400
0.005500358096230224,12314624
0.005562862165505567,7593984
0.0056253662347809106,786432
0.0056878703040562535,-5142528
0.005750374373331597,-10756096
0.00581287844260694,-14280704
0.005875382511882284,-16758784
0.005937886581157627,-16461824
0.006000390650432971,-13189120
0.006062894719708315,-8337408
0.006125398788983658,-2263040
0.0061879028582590015,4284416
0.0062504069275343445,9459712
0.006312910996809688,13518848
0.006375415066085031,16121856
0.006437919135360375,15452160
0.006500423204635718,12265472
0.006562927273911062,8280064
0.006625431343186406,2263040
0.006687935412461749,-4409344
0.0067504394817370925,-9838592
0.0068129435510124355,-13838336
0.006875447620287779,-15982592
0.006937951689563122,-16402432
0.007000455758838466,-13203456
0.00706295982811381,-7890944
0.007125463897389153,-2664448
0.007187967966664497,3471360
0.00725047203593984,9187328
0.0073129761052151835,13199360
0.007375480174490526,15126528
0.00743798424376587,14295040
0.007500488313041214,11134976
0.007562992382316557,6535168
0.007625496451591901,591872
0.007688000520867244,-6127616
0.007750504590142588,-11522048
0.007813008659417931,-15329280
0.007875512728693274,-16005120
0.007938016797968617,-15554560
0.008000520867243961,-13139968
0.008063024936519305,-7716864
0.008125529005794649,-1617920
0.008188033075069991,4390912
0.008250537144345335,9781248
0.008313041213620679,14280704
0.008375545282896022,15859712
0.008438049352171365,14921728
0.008500553421446708,11800576
0.008563057490722052,7395328
0.008625561559997396,1961984
0.00868806562927274,-4646912
0.008750569698548082,-10225664
0.008813073767823426,-14049280
0.00887557783709877,-15912960
0.008938081906374113,-15767552
0.009000585975649456,-13129728
0.0090630900449248,-7866368
0.009125594114200143,-2062336
0.009188098183475487,3749888
0.00925060225275083,9388032
0.009313106322026173,14010368
0.009375610391301517,15736832
0.00943811446057686,14825472
0.009500618529852204,12412928
0.009563122599127548,7890944
0.00962562666840289,1511424
0.009688130737678234,-5238784
0.009750634806953578,-9707520
0.009813138876228922,-13295616
0.009875642945504264,-15761408
0.009938147014779608,-15806464
0.010000651084054952,-12632064
0.010063155153330295,-7303168
0.01012565922260564,-1908736
0.010188163291880981,3385344
0.010250667361156325,9134080
0.010313171430431669,13441024
0.010375675499707013,14884864
0.010438179568982355,14374912
0.010500683638257699,11245568
0.010563187707533042,7104512
0.010625691776808386,927744
0.01068819584608373,-5638144
0.010750699915359072,-10893312
0.010813203984634416,-14198784
0.01087570805390976,-16392192
0.010938212123185104,-16291840
0.011000716192460448,-12752896
0.01106322026173579,-7661568
0.011125724331011133,-1961984
0.011188228400286477,4208640
0.011250732469561821,9895936
0.011313236538837163,14120960
0.011375740608112507,15456256
0.01143824467738785,14542848
0.011500748746663195,11866112
0.011563252815938539,7409664
0.01162575688521388,1568768
0.011688260954489224,-4462592
0.011750765023764568,-9707520
0.011813269093039912,-14024704
0.011875773162315254,-16019456
0.011938277231590598,-15558656
0.012000781300865942,-12855296
0.012063285370141286,-7469056
0.01212578943941663,-2174976
0.012188293508691972,4444160
0.012250797577967315,9824256
0.01231330164724266,13185024
0.012375805716518003,14989312
0.012438309785793345,14393344
0.012500813855068689,11474944
0.012563317924344033,7251968
0.012625821993619377,1363968
0.01268832606289472,-5201920
0.012750830132170063,-10027008
0.012813334201445406,-14354432
0.01287583827072075,-16142336
0.012938342339996094,-15626240
0.013000846409271436,-12845056
0.01306335047854678,-8138752
0.013125854547822124,-2224128
0.013188358617097468,3700736
0.013250862686372811,9590784
0.013313366755648154,13500416
0.013375870824923497,15030272
0.013438374894198841,14616576
0.013500878963474185,12052480
0.013563383032749529,7415808
0.013625887102024871,1300480
0.013688391171300215,-5036032
0.013750895240575559,-10852352
0.013813399309850902,-13809664
0.013875903379126244,-15802368
0.013938407448401588,-15161344
0.014000911517676932,-12019712
0.014063415586952276,-6594560
0.01412591965622762,-655360
0.014188423725502962,5287936
0.014250927794778306,10688512
0.01431343186405365,14630912
0.014375935933328993,16203776
0.014438440002604335,14942208
0.01450094407187968,12619776
0.014563448141155023,7434240
0.014625952210430367,1044480
0.01468845627970571,-5001216
0.014750960348981053,-10575872
0.014813464418256397,-14573568
0.01487596848753174,-16244736
0.014938472556807084,-15446016
0.015000976626082428,-12640256
0.01506348069535777,-7706624
0.015125984764633114,-1937408
0.015188488833908458,4423680
0.015250992903183802,9658368
0.015313496972459144,13694976
0.015376001041734488,15667200
0.015438505111009831,15069184
0.015501009180285175,12115968
0.015563513249560519,7802880
0.015626017318835863,1937408
0.015688521388111207,-4544512
0.015751025457386547,-10381312
0.01581352952666189,-14010368
0.015876033595937235,-15931392
0.01593853766521258,-16082944
0.016001041734487922,-12742656
0.016063545803763266,-7546880
0.01612604987303861,-1597440
0.016188553942313954,4222976
0.016251058011589298,9820160
0.016313562080864638,13568000
0.016376066150139982,15251456
0.016438570219415326,13889536
0.01650107428869067,11560960
0.016563578357966013,7292928
0.016626082427241357,878592
0.0166885864965167,-5341184
0.016751090565792045,-10473472
0.01681359463506739,-13862912
0.01687609870434273,-16220160
0.016938602773618073,-16029696
0.017001106842893417,-13271040
0.01706361091216876,-7890944
0.017126114981444104,-1777664
0.017188619050719448,3846144
0.017251123119994792,9404416
0.017313627189270136,13496320
0.01737613125854548,15699968
0.01743863532782082,14645248
0.017501139397096164,12034048
0.017563643466371508,7759872
0.01762614753564685,1452032
0.017688651604922195,-5150720
0.01775115567419754,-10303488
0.017813659743472883,-13774848
0.017876163812748227,-15659008
0.01793866788202357,-15267840
0.01800117195129891,-12212224
0.018063676020574255,-7493632
0.0181261800898496,-1683456
0.018188684159124942,4335616
0.018251188228400286,9984000
0.01831369229767563,13193216
0.018376196366950974,14708736
0.018438700436226318,14387200
0.01850120450550166,11028480
0.018563708574777005,6473728
0.018626212644052346,552960
0.01868871671332769,-5380096
0.018751220782603033,-10450944
0.018813724851878377,-14233600
0.01887622892115372,-15931392
0.018938732990429065,-15403008
0.01900123705970441,-12384256
0.019063741128979753,-7589888
0.019126245198255096,-1679360
0.019188749267530437,4653056
0.01925125333680578,9867264
0.019313757406081124,13975552
0.019376261475356468,16242688
0.019438765544631812,15388672
0.019501269613907156,12611584
0.0195637736831825,7780352
0.019626277752457844,1693696
0.019688781821733187,-4915200
0.019751285891008528,-10174464
0.01981378996028387,-14364672
0.019876294029559215,-16330752
0.01993879809883456,-15452160
0.020001302168109903,-12752896
0.020063806237385247,-8028160
0.02012631030666059,-2355200
0.020188814375935935,4444160
0.02025131844521128,9693184
0.02031382251448662,13850624
0.020376326583761963,15579136
0.020438830653037306,15077376
0.02050133472231265,12548096
0.020563838791587994,7753728
0.020626342860863338,1720320
0.02068884693013868,-4603904
0.020751350999414025,-9381888
0.02081385506868937,-13465600
0.02087635913796471,-15933440
0.020938863207240054,-15198208
0.021001367276515397,-12111872
0.02106387134579074,-7647232
0.021126375415066085,-2322432
0.02118887948434143,3803136
0.021251383553616773,9861120
0.021313887622892116,13436928
0.02137639169216746,15157248
0.0214388957614428,14354432
0.021501399830718144,11780096
0.02156390389999349,6729728
0.021626407969268832,382976
0.021688912038544176,-5242880
0.02175141610781952,-10516480
0.021813920177094864,-14659584
0.021876424246370207,-17133568
0.02193892831564555,-15888384
0.022001432384920895,-12636160
0.022063936454196235,-7874560
0.02212644052347158,-2103296
0.022188944592746923,4710400
0.022251448662022267,10387456
0.02231395273129761,13776896
0.022376456800572955,15874048
0.0224389608698483,15665152
0.022501464939123642,12607488
0.022563969008398986,7768064
0.022626473077674326,2015232
0.02268897714694967,-3987456
0.022751481216225014,-9474048
0.022813985285500358,-13312000
0.0228764893547757,-15534080
0.022938993424051046,-15052800
0.02300149749332639,-12191744
0.023064001562601733,-7725056
0.023126505631877077,-1622016
0.023189009701152417,3870720
0.02325151377042776,10108928
0.023314017839703105,14071808
0.02337652190897845,15589376
0.023439025978253793,14743552
0.023501530047529137,12146688
0.02356403411680448,7788544
0.023626538186079824,1282048
0.023689042255355168,-5099520
0.02375154632463051,-10053632
0.023814050393905852,-13887488
0.023876554463181196,-16111616
0.02393905853245654,-15757312
0.024001562601731884,-12140544
0.024064066671007227,-7505920
0.02412657074028257,-1398784
0.024189074809557915,4831232
0.02425157887883326,10465280
0.0243140829481086,13766656
0.024376587017383943,15388672
0.024439091086659287,14999552
0.02450159515593463,11726848
0.024564099225209975,7182336
0.02462660329448532,839680
0.024689107363760662,-4923392
0.024751611433036006,-10385408
0.02481411550231135,-14077952
0.02487661957158669,-15902720
0.024939123640862034,-15364096
0.025001627710137378,-12445696
0.025064131779412722,-7639040
0.025126635848688066,-1476608
0.02518913991796341,4132864
0.025251643987238753,9269248
0.025314148056514097,13238272
0.02537665212578944,15335424
0.02543915619506478,14927872
0.025501660264340125,12283904
0.02556416433361547,7870464
0.025626668402890813,1787904
0.025689172472166157,-3856384
0.0257516765414415,-8919040
0.025814180610716844,-13426688
0.025876684679992188,-15349760
0.025939188749267532,-14831616
0.026001692818542872,-12204032
0.026064196887818216,-7225344
0.02612670095709356,-1327104
0.026189205026368904,4954112
0.026251709095644248,10164224
0.02631421316491959,13850624
0.026376717234194935,15388672
0.02643922130347028,15112192
0.026501725372745623,11759616
0.026564229442020967,6520832
0.026626733511296307,966656
0.02668923758057165,-4845568
0.026751741649846995,-9809920
0.02681424571912234,-14092288
0.026876749788397682,-15771648
0.026939253857673026,-15228928
0.02700175792694837,-12761088
0.027064261996223714,-7880704
0.027126766065499058,-2009088
0.027189270134774398,3616768
0.027251774204049742,9138176
0.027314278273325086,13408256
0.02737678234260043,15314944
0.027439286411875773,14036992
0.027501790481151117,11966464
0.02756429455042646,7639040
0.027626798619701805,1601536
0.02768930268897715,-4894720
0.02775180675825249,-10037248
0.027814310827527833,-13621248
0.027876814896803177,-15976448
0.02793931896607852,-15812608
0.028001823035353864,-12877824
0.028064327104629208,-7624704
0.028126831173904552,-2142208
0.028189335243179896,3758080
0.02825183931245524,9781248
0.02831434338173058,13504512
0.028376847451005924,15218688
0.028439351520281268,14485504
0.02850185558955661,11991040
0.028564359658831955,7118848
0.0286268637281073,1003520
0.028689367797382643,-4943872
0.028751871866657987,-9852928
0.02881437593593333,-12972032
0.02887688000520867,-15214592
0.028939384074484015,-14651392
0.02900188814375936,-11333632
0.029064392213034702,-6938624
0.029126896282310046,-1497088
0.02918940035158539,5050368
0.029251904420860734,10745856
0.029314408490136078,13907968
0.02937691255941142,15527936
0.029439416628686762,14729216
0.029501920697962106,11945984
0.02956442476723745,7129088
0.029626928836512793,1112064
0.029689432905788137,-5326848
0.02975193697506348,-10596352
0.029814441044338825,-14422016
0.02987694511361417,-16703488
0.029939449182889512,-16461824
0.030001953252164856,-12699648
0.030064457321440197,-7983104
0.03012696139071554,-2490368
0.030189465459990884,3661824
0.030251969529266228,9218048
0.030314473598541572,13242368
0.030376977667816916,14645248
0.03043948173709226,13946880
0.030501985806367603,11485184
0.030564489875642947,6856704
0.030626993944918288,552960
0.03068949801419363,-5543936
0.030752002083468975,-10997760
0.03081450615274432,-14616576
0.030877010222019663,-16730112
0.030939514291295007,-16193536
0.03100201836057035,-13203456
0.031064522429845694,-8128512
0.031127026499121038,-2273280
0.03118953056839638,4077568
0.031252034637671726,9979904
0.031314538706947066,13621248
0.031377042776222414,15835136
0.031439546845497754,14790656
0.031502050914773094,11925504
0.03156455498404844,7555072
0.03162705905332378,1728512
0.03168956312259913,-4685824
0.03175206719187447,-9648128
0.03181457126114982,-13101056
0.03187707533042516,-15470592
0.031939579399700505,-15175680
0.032002083468975845,-12066816
0.032064587538251185,-6928384
0.03212709160752653,-1327104
0.03218959567680187,4335616
0.03225209974607722,9459712
0.03231460381535256,13596672
0.03237710788462791,14931968
0.03243961195390325,14077952
0.032502116023178595,11524096
0.032564620092453936,6842368
0.032627124161729276,776192
0.032689628231004624,-4898816
0.032752132300279964,-9697280
0.03281463636955531,-13596672
0.03287714043883065,-14981120
0.032939644508106,-14475264
0.03300214857738134,-12140544
0.033064652646656686,-6524928
0.03312715671593203,-825344
0.03318966078520737,5267456
0.033252164854482714,10174464
0.033314668923758055,13737984
0.0333771729930334,15775744
0.03343967706230874,14817280
0.03350218113158409,11800576
0.03356468520085943,7297024
0.03362718927013478,1691648
0.03368969333941012,-4532224
0.03375219740868546,-9895936
0.033814701477960805,-13363200
0.033877205547236146,-14999552
0.03393970961651149,-14532608
0.03400221368578683,-12218368
0.03406471775506218,-6797312
0.03412722182433752,-792576
0.03418972589361287,4423680
0.03425222996288821,9912320
0.03431473403216355,14286848
0.034377238101438896,15767552
0.03443974217071424,14557184
0.034502246239989584,12449792
0.034564750309264924,7690240
0.03462725437854027,1923072
0.03468975844781561,-4560896
0.03475226251709096,-9570304
0.0348147665863663,-12498944
0.03487727065564164,-14743552
0.03493977472491699,-14878720
0.03500227879419233,-11208704
0.035064782863467675,-6666240
0.035127286932743015,-1298432
0.03518979100201836,4933632
0.0352522950712937,10508288
0.03531479914056905,13955072
0.03537730320984439,15597568
0.03543980727911973,15276032
0.03550231134839508,12398592
0.03556481541767042,7536640
0.035627319486945766,1533952
0.035689823556221106,-4448256
0.035752327625496454,-9775104
0.035814831694771794,-13809664
0.03587733576404714,-15951872
0.03593983983332248,-15616000
0.03600234390259782,-12324864
0.03606484797187317,-7688192
0.03612735204114851,-1796096
0.03618985611042386,3903488
0.0362523601796992,9721856
0.036314864248974545,13858816
0.036377368318249885,15495168
0.03643987238752523,14354432
0.03650237645680057,12208128
0.03656488052607592,7671808
0.03662738459535126,1654784
0.0366898886646266,-4890624
0.03675239273390195,-10104832
0.03681489680317729,-13299712
0.036877400872452636,-15282176
0.036939904941727976,-15319040
0.03700240901100332,-12169216
0.037064913080278664,-7182336
0.03712741714955401,-1499136
0.03718992121882935,4360192
0.03725242528810469,10061824
0.03731492935738004,14102528
0.03737743342665538,15316992
0.03743993749593073,14481408
0.03750244156520607,12476416
0.037564945634481414,7604224
0.037627449703756755,1423360
0.0376899537730321,-4851712
0.03775245784230744,-10076160
0.03781496191158278,-13737984
0.03787746598085813,-16082944
0.03793997005013347,-15745024
0.03800247411940882,-12533760
0.03806497818868416,-7559168
0.038127482257959505,-1626112
0.038189986327234846,4487168
0.03825249039651019,9920512
0.03831499446578553,13889536
0.038377498535060874,15753216
0.03844000260433622,15136768
0.03850250667361156,12527616
0.03856501074288691,8206336
0.03862751481216225,1972224
0.038690018881437596,-4204544
0.038752522950712937,-9881600
0.038815027019988284,-13971456
0.038877531089263624,-16117760
0.038940035158538965,-15572992
0.03900253922781431,-12728320
0.03906504329708965,-7739392
0.039127547366365,-1908736
0.03919005143564034,4030464
0.03925255550491569,9930752
0.03931505957419103,13582336
0.039377563643466375,15568896
0.039440067712741715,15261696
0.039502571782017055,12857344
0.0395650758512924,8060928
0.03962757992056774,1193984
0.03969008398984309,-4098048
0.03975258805911843,-8931328
0.03981509212839378,-13436928
0.03987759619766912,-15466496
0.039940100266944466,-14790656
0.040002604336219806,-11716608
0.040065108405495146,-7294976
0.040127612474770494,-1179648
0.040190116544045834,4845568
0.04025262061332118,10434560
0.04031512468259652,13971456
0.04037762875187187,15499264
0.04044013282114721,15073280
0.04050263689042256,11751424
0.0405651409596979,7833600
